{
  "AcquisitionMatrixPE": 64,
  "AcquisitionNumber": 1,
  "AcquisitionTime": "15:51:18.447500",
  "BandwidthPerPixelPhaseEncode": 24.038,
  "BaseResolution": 64,
  "BodyPartExamined": "HEAD",
  "ConsistencyInfo": "N4_VD13A_LATEST_20120616",
  "ConversionSoftware": "dcm2niix",
  "ConversionSoftwareVersion": "v1.0.20181125  GCC6.3.0",
  "DerivedVendorReportedEchoSpacing": 0.000650012,
  "DeviceSerialNumber": "45250",
  "DwellTime": 4.6e-06,
  "EchoTime": 0.033,
  "EchoTrainLength": 64,
  "EffectiveEchoSpacing": 0.000650012,
  "FlipAngle": 90,
  "ImageOrientationPatientDICOM": [0.999919, -0.00807183, -0.00981006, 0.00349032, 0.917037, -0.398787],
  "ImageType": [
    "ORIGINAL",
    "PRIMARY",
    "M",
    "ND",
    "NORM",
    "MOSAIC"
],
  "ImagingFrequency": 123.22,
  "InPlanePhaseEncodingDirectionDICOM": "COL",
  "InstitutionAddress": "Kopernikusstr._26_Graz_Graz_AT_8010",
  "InstitutionName": "KFU",
  "InstitutionalDepartmentName": "Department",
  "MRAcquisitionType": "2D",
  "MagneticFieldStrength": 3,
  "Manufacturer": "Siemens",
  "ManufacturersModelName": "Skyra",
  "Modality": "MR",
  "PartialFourier": 1,
  "PatientPosition": "HFS",
  "PercentPhaseFOV": 100,
  "PhaseEncodingDirection": "j-",
  "PhaseEncodingSteps": 64,
  "PhaseResolution": 1,
  "PixelBandwidth": 1700,
  "ProcedureStepDescription": "KFU_Entw-Psy",
  "ProtocolName": "fMRI_1",
  "PulseSequenceDetails": "%SiemensSeq%_ep2d_pace",
  "ReceiveCoilActiveElements": "HE1-4",
  "ReceiveCoilName": "HeadNeck_20",
  "ReconMatrixPE": 64,
  "RepetitionTime": 2.34,
  "SAR": 0.162975,
  "ScanOptions": "FS",
  "ScanningSequence": "EP",
  "SequenceName": "_epfid2d1_64",
  "SequenceVariant": "SK",
  "SeriesDescription": "fMRI_1",
  "SeriesNumber": 2,
  "ShimSetting": [-1674, -3846, -4269, 416, 658, -440, 756, -71],
  "SliceThickness": 3,
  "SliceTiming": [2.2525, 2.185, 2.115, 2.0475, 1.98, 1.91, 1.8425, 1.775, 1.7075, 1.6375, 1.57, 1.5025, 1.4325, 1.365, 1.2975, 1.2275, 1.16, 1.0925, 1.025, 0.955, 0.8875, 0.82, 0.75, 0.6825, 0.615, 0.5475, 0.4775, 0.41, 0.3425, 0.2725, 0.205, 0.1375, 0.07, 0],
  "SoftwareVersions": "syngo_MR_D13",
  "SpacingBetweenSlices": 3.3,
  "StationName": "FBMTMR1",
  "TaskName": "read",
  "TotalReadoutTime": 0.0409508,
  "TxRefAmp": 346.152,
  "dcmmeta_affine": [
    [-2.999758005142212, 0.010470970533788204, -0.04030992463231087, 98.33235168457031],
    [0.024215489625930786, 2.751110792160034, -1.3157776594161987, -83.07965087890625],
    [-0.02943018451333046, 1.1963608264923096, 3.0260705947875977, -38.981361389160156],
    [0.0, 0.0, 0.0, 1.0]
],
  "dcmmeta_reorient_transform": [
    [0.0, -1.0, 0.0, 63.0],
    [1.0, 0.0, 0.0, 0.0],
    [0.0, 0.0, 1.0, 0.0],
    [0.0, 0.0, 0.0, 1.0]
],
  "dcmmeta_shape": [64, 64, 34, 129],
  "dcmmeta_slice_dim": 2,
  "dcmmeta_version": 0.6,
  "global": {
    "const": {
      "AcquisitionMatrix": [64, 0, 0, 64],
      "AngioFlag": "N",
      "BitsAllocated": 16,
      "BitsStored": 12,
      "BodyPartExamined": "HEAD",
      "Columns": 384,
      "EchoNumbers": 1,
      "EchoTime": 33.0,
      "EchoTrainLength": 64,
      "FlipAngle": 90.0,
      "HighBit": 11,
      "ImageOrientationPatient": [0.99991930087534, -0.0080718296271, -0.0098100613377, 0.00349032354425, 0.91703696709363, -0.3987869338698],
      "ImagePositionPatient": [-580.62864107436, -526.54360448727, 232.51592768642],
      "ImageType": [
        "ORIGINAL",
        "PRIMARY",
        "M",
        "ND",
        "NORM",
        "MOSAIC"
],
      "ImagedNucleus": "1H",
      "ImagingFrequency": 123.220042,
      "InPlanePhaseEncodingDirection": "COL",
      "MRAcquisitionType": "2D",
      "MagneticFieldStrength": 3.0,
      "Manufacturer": "SIEMENS",
      "ManufacturerModelName": "Skyra",
      "Modality": "MR",
      "NumberOfAverages": 1.0,
      "NumberOfPhaseEncodingSteps": 64,
      "PercentPhaseFieldOfView": 100.0,
      "PercentSampling": 100.0,
      "PerformedProcedureStepStartTime": "154916.240000",
      "PhotometricInterpretation": "MONOCHROME2",
      "PixelBandwidth": 1700.0,
      "PixelRepresentation": 0,
      "PixelSpacing": [3.0, 3.0],
      "ProtocolName": "fMRI_1",
      "RepetitionTime": 2340.0,
      "Rows": 384,
      "SAR": 0.16297476809877,
      "SamplesPerPixel": 1,
      "ScanOptions": "FS",
      "ScanningSequence": "EP",
      "SequenceName": "*epfid2d1_64",
      "SequenceVariant": "SK",
      "SeriesDescription": "fMRI_1",
      "SeriesNumber": 2,
      "SeriesTime": "155204.541000",
      "SliceLocation": -3.8211445406226,
      "SliceThickness": 3.0,
      "SmallestImagePixelValue": 0,
      "SoftwareVersions": "syngo MR D13",
      "SpacingBetweenSlices": 3.2999999513412,
      "SpecificCharacterSet": "ISO_IR 100",
      "StudyID": "1",
      "StudyTime": "154916.194000",
      "TransmitCoilName": "Body",
      "VariableFlipAngleFlag": "N",
      "WindowCenterWidthExplanation": "Algo1",
      "dBdt": 0.0},
    "slices": {}
  },
  "time": {
    "samples": {
      "AcquisitionNumber": [1, 2, 3, 4, 5, 6, 7, 8, 9, 10, 11, 12, 13, 14, 15, 16, 17, 18, 19, 20, 21, 22, 23, 24, 25, 26, 27, 28, 29, 30, 31, 32, 33, 34, 35, 36, 37, 38, 39, 40, 41, 42, 43, 44, 45, 46, 47, 48, 49, 50, 51, 52, 53, 54, 55, 56, 57, 58, 59, 60, 61, 62, 63, 64, 65, 66, 67, 68, 69, 70, 71, 72, 73, 74, 75, 76, 77, 78, 79, 80, 81, 82, 83, 84, 85, 86, 87, 88, 89, 90, 91, 92, 93, 94, 95, 96, 97, 98, 99, 100, 101, 102, 103, 104, 105, 106, 107, 108, 109, 110, 111, 112, 113, 114, 115, 116, 117, 118, 119, 120, 121, 122, 123, 124, 125, 126, 127, 128, 129],
      "AcquisitionTime": ["155118.447500", "155120.787500", "155123.127500", "155125.467500", "155127.807500", "155130.147500", "155132.487500", "155134.827500", "155137.167500", "155139.507500", "155141.847500", "155144.187500", "155146.527500", "155148.867500", "155151.207500", "155153.547500", "155155.887500", "155158.227500", "155200.567500", "155202.907500", "155205.247500", "155207.587500", "155209.927500", "155212.267500", "155214.607500", "155216.947500", "155219.287500", "155221.627500", "155223.967500", "155226.307500", "155228.647500", "155230.987500", "155233.327500", "155235.667500", "155238.007500", "155240.347500", "155242.687500", "155245.027500", "155247.367500", "155249.707500", "155252.047500", "155254.387500", "155256.727500", "155259.067500", "155301.407500", "155303.747500", "155306.087500", "155308.427500", "155310.767500", "155313.107500", "155315.447500", "155317.787500", "155320.127500", "155322.467500", "155324.807500", "155327.147500", "155329.487500", "155331.827500", "155334.167500", "155336.507500", "155338.847500", "155341.187500", "155343.527500", "155345.867500", "155348.207500", "155350.547500", "155352.887500", "155355.227500", "155357.567500", "155359.907500", "155402.247500", "155404.587500", "155406.927500", "155409.267500", "155411.607500", "155413.947500", "155416.287500", "155418.627500", "155420.967500", "155423.307500", "155425.647500", "155427.987500", "155430.327500", "155432.667500", "155435.007500", "155437.347500", "155439.687500", "155442.027500", "155444.367500", "155446.707500", "155449.047500", "155451.387500", "155453.727500", "155456.067500", "155458.407500", "155500.747500", "155503.087500", "155505.427500", "155507.767500", "155510.107500", "155512.447500", "155514.787500", "155517.127500", "155519.467500", "155521.807500", "155524.147500", "155526.487500", "155528.827500", "155531.167500", "155533.507500", "155535.847500", "155538.187500", "155540.527500", "155542.867500", "155545.207500", "155547.547500", "155549.887500", "155552.227500", "155554.567500", "155556.907500", "155559.247500", "155601.587500", "155603.927500", "155606.267500", "155608.607500", "155610.947500", "155613.287500", "155615.627500", "155617.967500"],
      "ContentTime": ["155204.545000", "155204.549000", "155204.552000", "155204.560000", "155204.562000", "155204.565000", "155204.567000", "155204.570000", "155204.573000", "155204.575000", "155204.578000", "155204.580000", "155204.583000", "155204.586000", "155204.588000", "155204.591000", "155204.593000", "155204.596000", "155204.599000", "155204.601000", "155304.539000", "155304.542000", "155304.545000", "155304.548000", "155304.551000", "155304.554000", "155304.556000", "155304.559000", "155304.562000", "155304.565000", "155304.568000", "155304.571000", "155304.573000", "155304.576000", "155304.583000", "155304.586000", "155304.589000", "155304.592000", "155304.595000", "155304.597000", "155304.600000", "155304.603000", "155304.606000", "155304.609000", "155304.611000", "155304.614000", "155404.539000", "155404.543000", "155404.545000", "155404.548000", "155404.551000", "155404.554000", "155404.557000", "155404.560000", "155404.563000", "155404.565000", "155404.568000", "155404.571000", "155404.574000", "155404.577000", "155404.580000", "155404.582000", "155404.585000", "155404.588000", "155404.591000", "155404.594000", "155404.596000", "155404.599000", "155404.602000", "155404.605000", "155404.608000", "155504.541000", "155504.544000", "155504.547000", "155504.550000", "155504.557000", "155504.560000", "155504.563000", "155504.566000", "155504.569000", "155504.572000", "155504.575000", "155504.577000", "155504.580000", "155504.583000", "155504.586000", "155504.589000", "155504.592000", "155504.595000", "155504.597000", "155504.600000", "155504.603000", "155504.606000", "155504.609000", "155504.612000", "155504.614000", "155504.617000", "155604.539000", "155604.542000", "155604.557000", "155604.559000", "155604.562000", "155604.565000", "155604.568000", "155604.571000", "155604.574000", "155604.576000", "155604.579000", "155604.582000", "155604.585000", "155604.588000", "155604.591000", "155604.594000", "155604.596000", "155604.599000", "155604.602000", "155604.605000", "155604.608000", "155604.611000", "155604.614000", "155604.616000", "155604.619000", "155604.622000", "155620.246000", "155620.249000", "155620.252000", "155620.255000", "155620.257000", "155620.260000"],
      "InstanceCreationTime": ["155204.545000", "155204.549000", "155204.552000", "155204.560000", "155204.562000", "155204.565000", "155204.567000", "155204.570000", "155204.573000", "155204.575000", "155204.578000", "155204.580000", "155204.583000", "155204.586000", "155204.588000", "155204.591000", "155204.593000", "155204.596000", "155204.599000", "155204.601000", "155304.539000", "155304.542000", "155304.545000", "155304.548000", "155304.551000", "155304.554000", "155304.556000", "155304.559000", "155304.562000", "155304.565000", "155304.568000", "155304.571000", "155304.573000", "155304.576000", "155304.583000", "155304.586000", "155304.589000", "155304.592000", "155304.595000", "155304.597000", "155304.600000", "155304.603000", "155304.606000", "155304.609000", "155304.611000", "155304.614000", "155404.539000", "155404.543000", "155404.545000", "155404.548000", "155404.551000", "155404.554000", "155404.557000", "155404.560000", "155404.563000", "155404.565000", "155404.568000", "155404.571000", "155404.574000", "155404.577000", "155404.580000", "155404.582000", "155404.585000", "155404.588000", "155404.591000", "155404.594000", "155404.596000", "155404.599000", "155404.602000", "155404.605000", "155404.608000", "155504.541000", "155504.544000", "155504.547000", "155504.550000", "155504.557000", "155504.560000", "155504.563000", "155504.566000", "155504.569000", "155504.572000", "155504.575000", "155504.577000", "155504.580000", "155504.583000", "155504.586000", "155504.589000", "155504.592000", "155504.595000", "155504.597000", "155504.600000", "155504.603000", "155504.606000", "155504.609000", "155504.612000", "155504.614000", "155504.617000", "155604.539000", "155604.542000", "155604.557000", "155604.559000", "155604.562000", "155604.565000", "155604.568000", "155604.571000", "155604.574000", "155604.576000", "155604.579000", "155604.582000", "155604.585000", "155604.588000", "155604.591000", "155604.594000", "155604.596000", "155604.599000", "155604.602000", "155604.605000", "155604.608000", "155604.611000", "155604.614000", "155604.616000", "155604.619000", "155604.622000", "155620.246000", "155620.249000", "155620.252000", "155620.255000", "155620.257000", "155620.260000"],
      "InstanceNumber": [1, 2, 3, 4, 5, 6, 7, 8, 9, 10, 11, 12, 13, 14, 15, 16, 17, 18, 19, 20, 21, 22, 23, 24, 25, 26, 27, 28, 29, 30, 31, 32, 33, 34, 35, 36, 37, 38, 39, 40, 41, 42, 43, 44, 45, 46, 47, 48, 49, 50, 51, 52, 53, 54, 55, 56, 57, 58, 59, 60, 61, 62, 63, 64, 65, 66, 67, 68, 69, 70, 71, 72, 73, 74, 75, 76, 77, 78, 79, 80, 81, 82, 83, 84, 85, 86, 87, 88, 89, 90, 91, 92, 93, 94, 95, 96, 97, 98, 99, 100, 101, 102, 103, 104, 105, 106, 107, 108, 109, 110, 111, 112, 113, 114, 115, 116, 117, 118, 119, 120, 121, 122, 123, 124, 125, 126, 127, 128, 129],
      "LargestImagePixelValue": [1860, 1726, 1839, 1722, 1780, 1809, 1704, 1709, 1670, 1819, 1685, 1862, 1665, 1910, 1695, 1760, 1730, 1743, 2010, 1917, 1751, 1758, 1760, 1770, 1876, 1800, 1830, 2120, 1917, 1927, 1733, 1865, 1737, 1812, 1764, 1832, 1845, 1710, 1862, 1969, 1699, 1732, 1868, 1925, 1731, 1900, 1753, 1825, 1873, 1643, 1746, 2143, 1750, 1825, 1812, 1769, 1681, 1805, 1775, 1865, 1716, 1833, 1683, 1701, 1853, 1811, 1801, 1808, 1759, 1869, 1771, 1874, 1754, 1844, 1717, 1838, 1821, 1838, 1809, 1783, 1735, 1764, 1908, 1744, 1806, 1928, 1940, 1640, 1752, 1696, 1787, 1740, 1704, 1870, 1665, 1750, 1711, 1818, 1939, 1845, 1821, 1832, 1813, 1777, 1850, 1814, 1726, 1895, 1744, 1802, 1841, 1749, 1794, 1640, 1666, 1711, 1750, 1821, 1810, 1790, 1744, 1946, 1878, 1737, 1712, 1942, 1684, 1732, 1795],
      "WindowCenter": [739.0, 737.0, 736.0, 736.0, 737.0, 736.0, 734.0, 735.0, 736.0, 736.0, 735.0, 735.0, 734.0, 736.0, 735.0, 735.0, 736.0, 737.0, 737.0, 736.0, 734.0, 735.0, 736.0, 736.0, 735.0, 734.0, 736.0, 736.0, 734.0, 734.0, 732.0, 732.0, 732.0, 735.0, 735.0, 733.0, 733.0, 734.0, 735.0, 735.0, 734.0, 736.0, 736.0, 736.0, 737.0, 737.0, 737.0, 737.0, 736.0, 736.0, 737.0, 737.0, 733.0, 733.0, 732.0, 733.0, 735.0, 737.0, 736.0, 736.0, 735.0, 734.0, 734.0, 737.0, 736.0, 736.0, 736.0, 736.0, 734.0, 735.0, 734.0, 735.0, 736.0, 735.0, 735.0, 737.0, 737.0, 736.0, 734.0, 736.0, 736.0, 737.0, 736.0, 735.0, 736.0, 738.0, 737.0, 737.0, 737.0, 736.0, 735.0, 735.0, 735.0, 735.0, 734.0, 736.0, 737.0, 738.0, 737.0, 737.0, 736.0, 736.0, 737.0, 736.0, 735.0, 736.0, 735.0, 736.0, 735.0, 736.0, 737.0, 736.0, 736.0, 736.0, 737.0, 739.0, 738.0, 736.0, 735.0, 736.0, 737.0, 737.0, 736.0, 736.0, 736.0, 737.0, 736.0, 738.0, 738.0],
      "WindowWidth": [1551.0, 1545.0, 1544.0, 1542.0, 1545.0, 1544.0, 1539.0, 1540.0, 1544.0, 1545.0, 1542.0, 1541.0, 1539.0, 1542.0, 1542.0, 1541.0, 1543.0, 1545.0, 1545.0, 1545.0, 1539.0, 1541.0, 1542.0, 1543.0, 1542.0, 1539.0, 1543.0, 1543.0, 1540.0, 1538.0, 1534.0, 1533.0, 1535.0, 1541.0, 1540.0, 1537.0, 1537.0, 1538.0, 1540.0, 1541.0, 1537.0, 1545.0, 1543.0, 1544.0, 1545.0, 1547.0, 1547.0, 1546.0, 1543.0, 1544.0, 1546.0, 1547.0, 1537.0, 1536.0, 1534.0, 1538.0, 1540.0, 1547.0, 1544.0, 1544.0, 1541.0, 1540.0, 1539.0, 1546.0, 1542.0, 1544.0, 1543.0, 1542.0, 1539.0, 1543.0, 1538.0, 1543.0, 1543.0, 1542.0, 1542.0, 1547.0, 1548.0, 1544.0, 1539.0, 1545.0, 1544.0, 1546.0, 1544.0, 1541.0, 1545.0, 1549.0, 1547.0, 1547.0, 1546.0, 1543.0, 1541.0, 1541.0, 1542.0, 1541.0, 1540.0, 1544.0, 1545.0, 1548.0, 1546.0, 1545.0, 1544.0, 1546.0, 1546.0, 1544.0, 1542.0, 1544.0, 1543.0, 1543.0, 1542.0, 1544.0, 1545.0, 1544.0, 1544.0, 1545.0, 1545.0, 1551.0, 1548.0, 1544.0, 1541.0, 1543.0, 1546.0, 1547.0, 1543.0, 1543.0, 1543.0, 1546.0, 1543.0, 1549.0, 1547.0]
    },
    "slices": {}
  }
}