{
  "AcquisitionMatrixPE": 64,
  "AcquisitionNumber": 1,
  "AcquisitionTime": "15:57:40.367500",
  "BandwidthPerPixelPhaseEncode": 24.038,
  "BaseResolution": 64,
  "BodyPartExamined": "HEAD",
  "ConsistencyInfo": "N4_VD13A_LATEST_20120616",
  "ConversionSoftware": "dcm2niix",
  "ConversionSoftwareVersion": "v1.0.20181125  GCC6.3.0",
  "DerivedVendorReportedEchoSpacing": 0.000650012,
  "DeviceSerialNumber": "45250",
  "DwellTime": 4.6e-06,
  "EchoTime": 0.033,
  "EchoTrainLength": 64,
  "EffectiveEchoSpacing": 0.000650012,
  "FlipAngle": 90,
  "ImageOrientationPatientDICOM": [0.999919, -0.000521312, -0.0126933, -0.00349042, 0.949433, -0.313951],
  "ImageType": [
    "ORIGINAL",
    "PRIMARY",
    "M",
    "ND",
    "NORM",
    "MOSAIC"
],
  "ImagingFrequency": 123.22,
  "InPlanePhaseEncodingDirectionDICOM": "COL",
  "InstitutionAddress": "Kopernikusstr._26_Graz_Graz_AT_8010",
  "InstitutionName": "KFU",
  "InstitutionalDepartmentName": "Department",
  "MRAcquisitionType": "2D",
  "MagneticFieldStrength": 3,
  "Manufacturer": "Siemens",
  "ManufacturersModelName": "Skyra",
  "Modality": "MR",
  "PartialFourier": 1,
  "PatientPosition": "HFS",
  "PercentPhaseFOV": 100,
  "PhaseEncodingDirection": "j-",
  "PhaseEncodingSteps": 64,
  "PhaseResolution": 1,
  "PixelBandwidth": 1700,
  "ProcedureStepDescription": "KFU_Entw-Psy",
  "ProtocolName": "fMRI_2",
  "PulseSequenceDetails": "%SiemensSeq%_ep2d_pace",
  "ReceiveCoilActiveElements": "HE1-4",
  "ReceiveCoilName": "HeadNeck_20",
  "ReconMatrixPE": 64,
  "RepetitionTime": 2.34,
  "SAR": 0.162975,
  "ScanOptions": "FS",
  "ScanningSequence": "EP",
  "SequenceName": "_epfid2d1_64",
  "SequenceVariant": "SK",
  "SeriesDescription": "fMRI_2",
  "SeriesNumber": 5,
  "ShimSetting": [-1675, -3842, -4258, 437, 652, -430, 734, -66],
  "SliceThickness": 3,
  "SliceTiming": [2.2525, 2.185, 2.115, 2.0475, 1.98, 1.91, 1.8425, 1.775, 1.705, 1.6375, 1.57, 1.5025, 1.4325, 1.365, 1.2975, 1.2275, 1.16, 1.0925, 1.025, 0.955, 0.8875, 0.82, 0.75, 0.6825, 0.615, 0.5475, 0.4775, 0.41, 0.3425, 0.2725, 0.205, 0.1375, 0.0675, 0],
  "SoftwareVersions": "syngo_MR_D13",
  "SpacingBetweenSlices": 3.3,
  "StationName": "FBMTMR1",
  "TaskName": "read",
  "TotalReadoutTime": 0.0409508,
  "TxRefAmp": 346.152,
  "dcmmeta_affine": [
    [-2.999758005142212, -0.010471257381141186, -0.040309932082891464, 97.17433166503906],
    [0.0015639362391084433, 2.8482980728149414, -1.0361019372940063, -88.17484283447266],
    [-0.03807999938726425, 0.9418538808822632, 3.132869005203247, -33.179298400878906],
    [0.0, 0.0, 0.0, 1.0]
],
  "dcmmeta_reorient_transform": [
    [0.0, -1.0, 0.0, 63.0],
    [1.0, 0.0, 0.0, 0.0],
    [0.0, 0.0, 1.0, 0.0],
    [0.0, 0.0, 0.0, 1.0]
],
  "dcmmeta_shape": [64, 64, 34, 130],
  "dcmmeta_slice_dim": 2,
  "dcmmeta_version": 0.6,
  "global": {
    "const": {
      "AcquisitionMatrix": [64, 0, 0, 64],
      "AngioFlag": "N",
      "BitsAllocated": 16,
      "BitsStored": 12,
      "BodyPartExamined": "HEAD",
      "Columns": 384,
      "EchoNumbers": 1,
      "EchoTime": 33.0,
      "EchoTrainLength": 64,
      "FlipAngle": 90.0,
      "HighBit": 11,
      "ImageOrientationPatient": [0.99991930051395, -0.0005213120939, -0.0126933326351, -0.0034904191589, 0.94943267340792, -0.3139512950118],
      "ImagePositionPatient": [-574.80050414636, -546.74538477986, 182.94691661625],
      "ImageType": [
        "ORIGINAL",
        "PRIMARY",
        "M",
        "ND",
        "NORM",
        "MOSAIC"
],
      "ImagedNucleus": "1H",
      "ImagingFrequency": 123.22004,
      "InPlanePhaseEncodingDirection": "COL",
      "MRAcquisitionType": "2D",
      "MagneticFieldStrength": 3.0,
      "Manufacturer": "SIEMENS",
      "ManufacturerModelName": "Skyra",
      "Modality": "MR",
      "NumberOfAverages": 1.0,
      "NumberOfPhaseEncodingSteps": 64,
      "PercentPhaseFieldOfView": 100.0,
      "PercentSampling": 100.0,
      "PerformedProcedureStepStartTime": "154916.240000",
      "PhotometricInterpretation": "MONOCHROME2",
      "PixelBandwidth": 1700.0,
      "PixelRepresentation": 0,
      "PixelSpacing": [3.0, 3.0],
      "ProtocolName": "fMRI_2",
      "RepetitionTime": 2340.0,
      "Rows": 384,
      "SAR": 0.16297476809877,
      "SamplesPerPixel": 1,
      "ScanOptions": "FS",
      "ScanningSequence": "EP",
      "SequenceName": "*epfid2d1_64",
      "SequenceVariant": "SK",
      "SeriesDescription": "fMRI_2",
      "SeriesNumber": 5,
      "SeriesTime": "155810.228000",
      "SliceLocation": -5.0016265649672,
      "SliceThickness": 3.0,
      "SmallestImagePixelValue": 0,
      "SoftwareVersions": "syngo MR D13",
      "SpacingBetweenSlices": 3.3000000192865,
      "SpecificCharacterSet": "ISO_IR 100",
      "StudyID": "1",
      "StudyTime": "154916.194000",
      "TransmitCoilName": "Body",
      "VariableFlipAngleFlag": "N",
      "WindowCenterWidthExplanation": "Algo1",
      "dBdt": 0.0},
    "slices": {}
  },
  "time": {
    "samples": {
      "AcquisitionNumber": [1, 2, 3, 4, 5, 6, 7, 8, 9, 10, 11, 12, 13, 14, 15, 16, 17, 18, 19, 20, 21, 22, 23, 24, 25, 26, 27, 28, 29, 30, 31, 32, 33, 34, 35, 36, 37, 38, 39, 40, 41, 42, 43, 44, 45, 46, 47, 48, 49, 50, 51, 52, 53, 54, 55, 56, 57, 58, 59, 60, 61, 62, 63, 64, 65, 66, 67, 68, 69, 70, 71, 72, 73, 74, 75, 76, 77, 78, 79, 80, 81, 82, 83, 84, 85, 86, 87, 88, 89, 90, 91, 92, 93, 94, 95, 96, 97, 98, 99, 100, 101, 102, 103, 104, 105, 106, 107, 108, 109, 110, 111, 112, 113, 114, 115, 116, 117, 118, 119, 120, 121, 122, 123, 124, 125, 126, 127, 128, 129, 130],
      "AcquisitionTime": ["155740.367500", "155742.707500", "155745.047500", "155747.387500", "155749.727500", "155752.067500", "155754.407500", "155756.747500", "155759.087500", "155801.427500", "155803.767500", "155806.107500", "155808.447500", "155810.787500", "155813.127500", "155815.467500", "155817.807500", "155820.147500", "155822.487500", "155824.827500", "155827.167500", "155829.507500", "155831.847500", "155834.187500", "155836.527500", "155838.867500", "155841.207500", "155843.547500", "155845.887500", "155848.227500", "155850.567500", "155852.907500", "155855.247500", "155857.587500", "155859.927500", "155902.267500", "155904.607500", "155906.947500", "155909.287500", "155911.627500", "155913.967500", "155916.307500", "155918.647500", "155920.987500", "155923.327500", "155925.667500", "155928.007500", "155930.347500", "155932.687500", "155935.027500", "155937.367500", "155939.707500", "155942.047500", "155944.387500", "155946.727500", "155949.067500", "155951.407500", "155953.747500", "155956.087500", "155958.427500", "160000.767500", "160003.107500", "160005.447500", "160007.787500", "160010.127500", "160012.467500", "160014.807500", "160017.147500", "160019.487500", "160021.827500", "160024.167500", "160026.507500", "160028.847500", "160031.187500", "160033.527500", "160035.867500", "160038.207500", "160040.547500", "160042.887500", "160045.227500", "160047.567500", "160049.907500", "160052.247500", "160054.587500", "160056.927500", "160059.267500", "160101.607500", "160103.947500", "160106.287500", "160108.627500", "160110.967500", "160113.307500", "160115.647500", "160117.987500", "160120.327500", "160122.667500", "160125.007500", "160127.347500", "160129.687500", "160132.027500", "160134.367500", "160136.707500", "160139.047500", "160141.387500", "160143.727500", "160146.067500", "160148.407500", "160150.747500", "160153.087500", "160155.427500", "160157.767500", "160200.107500", "160202.447500", "160204.787500", "160207.127500", "160209.467500", "160211.807500", "160214.147500", "160216.487500", "160218.827500", "160221.167500", "160223.507500", "160225.847500", "160228.187500", "160230.527500", "160232.867500", "160235.207500", "160237.547500", "160239.887500", "160242.227500"],
      "ContentTime": ["155810.233000", "155810.237000", "155810.240000", "155810.243000", "155810.245000", "155810.248000", "155810.251000", "155810.253000", "155810.256000", "155810.259000", "155810.261000", "155810.268000", "155810.270000", "155910.227000", "155910.230000", "155910.233000", "155910.236000", "155910.238000", "155910.241000", "155910.244000", "155910.246000", "155910.249000", "155910.251000", "155910.254000", "155910.256000", "155910.259000", "155910.262000", "155910.265000", "155910.267000", "155910.270000", "155910.272000", "155910.275000", "155910.278000", "155910.280000", "155910.283000", "155910.285000", "155910.288000", "155910.291000", "155910.293000", "160010.227000", "160010.231000", "160010.234000", "160010.236000", "160010.239000", "160010.242000", "160010.245000", "160010.248000", "160010.250000", "160010.253000", "160010.256000", "160010.259000", "160010.262000", "160010.264000", "160010.267000", "160010.270000", "160010.273000", "160010.275000", "160010.278000", "160010.281000", "160010.283000", "160010.286000", "160010.289000", "160010.291000", "160010.294000", "160110.228000", "160110.231000", "160110.234000", "160110.237000", "160110.240000", "160110.242000", "160110.245000", "160110.247000", "160110.250000", "160110.253000", "160110.256000", "160110.258000", "160110.261000", "160110.263000", "160110.266000", "160110.269000", "160110.271000", "160110.274000", "160110.276000", "160110.279000", "160110.285000", "160110.288000", "160110.290000", "160110.293000", "160110.296000", "160110.298000", "160210.227000", "160210.230000", "160210.233000", "160210.236000", "160210.239000", "160210.242000", "160210.245000", "160210.247000", "160210.250000", "160210.253000", "160210.256000", "160210.259000", "160210.262000", "160210.265000", "160210.268000", "160210.270000", "160210.273000", "160210.276000", "160210.279000", "160210.282000", "160210.285000", "160210.288000", "160210.290000", "160210.293000", "160210.296000", "160210.299000", "160242.837000", "160242.840000", "160242.843000", "160242.845000", "160242.849000", "160242.852000", "160242.858000", "160242.861000", "160242.864000", "160242.867000", "160242.870000", "160242.873000", "160242.876000", "160242.879000"],
      "InstanceCreationTime": ["155810.233000", "155810.237000", "155810.240000", "155810.243000", "155810.245000", "155810.248000", "155810.251000", "155810.253000", "155810.256000", "155810.259000", "155810.261000", "155810.268000", "155810.270000", "155910.227000", "155910.230000", "155910.233000", "155910.236000", "155910.238000", "155910.241000", "155910.244000", "155910.246000", "155910.249000", "155910.251000", "155910.254000", "155910.256000", "155910.259000", "155910.262000", "155910.265000", "155910.267000", "155910.270000", "155910.272000", "155910.275000", "155910.278000", "155910.280000", "155910.283000", "155910.285000", "155910.288000", "155910.291000", "155910.293000", "160010.227000", "160010.231000", "160010.234000", "160010.236000", "160010.239000", "160010.242000", "160010.245000", "160010.248000", "160010.250000", "160010.253000", "160010.256000", "160010.259000", "160010.262000", "160010.264000", "160010.267000", "160010.270000", "160010.273000", "160010.275000", "160010.278000", "160010.281000", "160010.283000", "160010.286000", "160010.289000", "160010.291000", "160010.294000", "160110.228000", "160110.231000", "160110.234000", "160110.237000", "160110.240000", "160110.242000", "160110.245000", "160110.247000", "160110.250000", "160110.253000", "160110.256000", "160110.258000", "160110.261000", "160110.263000", "160110.266000", "160110.269000", "160110.271000", "160110.274000", "160110.276000", "160110.279000", "160110.285000", "160110.288000", "160110.290000", "160110.293000", "160110.296000", "160110.298000", "160210.227000", "160210.230000", "160210.233000", "160210.236000", "160210.239000", "160210.242000", "160210.245000", "160210.247000", "160210.250000", "160210.253000", "160210.256000", "160210.259000", "160210.262000", "160210.265000", "160210.268000", "160210.270000", "160210.273000", "160210.276000", "160210.279000", "160210.282000", "160210.285000", "160210.288000", "160210.290000", "160210.293000", "160210.296000", "160210.299000", "160242.837000", "160242.840000", "160242.843000", "160242.845000", "160242.849000", "160242.852000", "160242.858000", "160242.861000", "160242.864000", "160242.867000", "160242.870000", "160242.873000", "160242.876000", "160242.879000"],
      "InstanceNumber": [1, 2, 3, 4, 5, 6, 7, 8, 9, 10, 11, 12, 13, 14, 15, 16, 17, 18, 19, 20, 21, 22, 23, 24, 25, 26, 27, 28, 29, 30, 31, 32, 33, 34, 35, 36, 37, 38, 39, 40, 41, 42, 43, 44, 45, 46, 47, 48, 49, 50, 51, 52, 53, 54, 55, 56, 57, 58, 59, 60, 61, 62, 63, 64, 65, 66, 67, 68, 69, 70, 71, 72, 73, 74, 75, 76, 77, 78, 79, 80, 81, 82, 83, 84, 85, 86, 87, 88, 89, 90, 91, 92, 93, 94, 95, 96, 97, 98, 99, 100, 101, 102, 103, 104, 105, 106, 107, 108, 109, 110, 111, 112, 113, 114, 115, 116, 117, 118, 119, 120, 121, 122, 123, 124, 125, 126, 127, 128, 129, 130],
      "LargestImagePixelValue": [2118, 2085, 1858, 2020, 2116, 1891, 1800, 1871, 1881, 1730, 1789, 1999, 1878, 1848, 1871, 1883, 1884, 1709, 1834, 1894, 1891, 1903, 1885, 1777, 1928, 1888, 1885, 1886, 1991, 1949, 1876, 1883, 1829, 1691, 1894, 1866, 1884, 1836, 1916, 1760, 1691, 1748, 1768, 1828, 1741, 2153, 1839, 1992, 2228, 1936, 1751, 1828, 1787, 1852, 1747, 1899, 1898, 2040, 1978, 1919, 1928, 1968, 1841, 1824, 1884, 1917, 1724, 1896, 2064, 1822, 1795, 1836, 2057, 1892, 1866, 1773, 1886, 1846, 1832, 1824, 1763, 1957, 1966, 2133, 1885, 1866, 1888, 1931, 1758, 1928, 2083, 1841, 1791, 1827, 1718, 1812, 1879, 1954, 1956, 1953, 1994, 2008, 1922, 1910, 1845, 1984, 1911, 1736, 1712, 1721, 1813, 1886, 1924, 1849, 1817, 1904, 1990, 1891, 1878, 1910, 1745, 1960, 2142, 1921, 1922, 1720, 1828, 1776, 1882, 1923],
      "WindowCenter": [744.0, 742.0, 740.0, 742.0, 742.0, 739.0, 738.0, 738.0, 740.0, 740.0, 740.0, 742.0, 740.0, 738.0, 739.0, 741.0, 742.0, 740.0, 741.0, 741.0, 739.0, 741.0, 741.0, 741.0, 742.0, 740.0, 740.0, 742.0, 742.0, 739.0, 740.0, 740.0, 741.0, 741.0, 741.0, 741.0, 742.0, 742.0, 740.0, 740.0, 739.0, 742.0, 743.0, 745.0, 743.0, 743.0, 743.0, 741.0, 740.0, 738.0, 740.0, 741.0, 739.0, 740.0, 742.0, 743.0, 742.0, 742.0, 741.0, 742.0, 742.0, 741.0, 740.0, 740.0, 741.0, 741.0, 742.0, 743.0, 742.0, 741.0, 739.0, 743.0, 743.0, 741.0, 741.0, 741.0, 742.0, 743.0, 740.0, 743.0, 744.0, 745.0, 744.0, 742.0, 742.0, 743.0, 743.0, 743.0, 742.0, 744.0, 743.0, 740.0, 741.0, 741.0, 742.0, 743.0, 743.0, 743.0, 745.0, 744.0, 743.0, 743.0, 743.0, 742.0, 743.0, 743.0, 743.0, 742.0, 743.0, 743.0, 743.0, 744.0, 744.0, 747.0, 745.0, 745.0, 743.0, 744.0, 743.0, 744.0, 743.0, 745.0, 745.0, 743.0, 743.0, 744.0, 745.0, 746.0, 746.0, 745.0],
      "WindowWidth": [1558.0, 1554.0, 1550.0, 1554.0, 1553.0, 1547.0, 1544.0, 1545.0, 1549.0, 1548.0, 1549.0, 1553.0, 1548.0, 1546.0, 1548.0, 1552.0, 1553.0, 1549.0, 1552.0, 1551.0, 1548.0, 1551.0, 1552.0, 1552.0, 1552.0, 1549.0, 1550.0, 1553.0, 1553.0, 1547.0, 1548.0, 1549.0, 1551.0, 1551.0, 1550.0, 1551.0, 1553.0, 1553.0, 1550.0, 1548.0, 1548.0, 1553.0, 1556.0, 1561.0, 1557.0, 1556.0, 1556.0, 1551.0, 1549.0, 1545.0, 1548.0, 1552.0, 1546.0, 1549.0, 1553.0, 1557.0, 1554.0, 1555.0, 1551.0, 1555.0, 1555.0, 1552.0, 1548.0, 1550.0, 1552.0, 1552.0, 1553.0, 1556.0, 1554.0, 1553.0, 1548.0, 1555.0, 1556.0, 1552.0, 1550.0, 1552.0, 1554.0, 1557.0, 1550.0, 1555.0, 1558.0, 1561.0, 1558.0, 1554.0, 1553.0, 1556.0, 1556.0, 1554.0, 1555.0, 1559.0, 1555.0, 1549.0, 1551.0, 1552.0, 1554.0, 1556.0, 1556.0, 1557.0, 1562.0, 1560.0, 1555.0, 1557.0, 1556.0, 1555.0, 1556.0, 1556.0, 1555.0, 1555.0, 1557.0, 1556.0, 1556.0, 1558.0, 1558.0, 1568.0, 1561.0, 1562.0, 1558.0, 1560.0, 1557.0, 1559.0, 1557.0, 1562.0, 1562.0, 1557.0, 1557.0, 1559.0, 1560.0, 1564.0, 1563.0, 1562.0]
    },
    "slices": {}
  }
}